Energy,XS
0.00124203,2.98208
0.00163006,2.60307
0.00212234,2.28123
0.00278538,1.99132
0.00362657,1.74511
0.00475955,1.52337
0.00619694,1.33504
0.00813293,1.16537
0.0105891,1.02118
0.0138972,0.891334
0.0180942,0.781241
0.0234661,0.686167
0.0253,0.660845
0.033204,0.577269
0.0432317,0.506488
0.0567377,0.441822
0.0738726,0.387736
0.0969512,0.338267
0.126231,0.297475
0.165666,0.258898
0.215698,0.226499
0.283085,0.197837
0.368577,0.173281
0.483724,0.15112
0.691383,0.126408
0.900182,0.110683
1.18141,0.097044
1.5382,0.0847467
2.01874,0.0737068
2.62841,0.064595
3.44955,0.056233
4.49132,0.0494572
5.35839,0.0449373
7.03241,0.0391485
9.15622,0.0343526
10.6915,0.0314806
14.0316,0.0273488
18.2692,0.0239069
21.3577,0.0218222
28.03,0.0188472
35.1547,0.016684
44.7768,0.0144671
55.9644,0.0126696
66.9071,0.0113803
89.5271,0.00944325
111.902,0.00811838
138.45,0.00697689
170.684,0.00594014
223.778,0.00478641
265.969,0.00411334
320.011,0.00346716
384.008,0.00288673
447.53,0.0024734
531.908,0.00204024
618.664,0.00170901
703.994,0.00145853
810.655,0.00121942
938.65,0.00100073
1066.64,8.45529E-4
1194.64,7.16277E-4
1365.3,5.91148E-4
1578.62,4.79547E-4
1749.28,4.11661E-4
1962.6,3.47063E-4
2218.59,2.88333E-4
2474.58,2.47078E-4
2730.57,2.12911E-4
3157.22,1.74095E-4
3498.53,1.51273E-4
3925.18,1.30198E-4
4266.5,1.17811E-4
4778.48,1.02283E-4
5631.77,8.59213E-5
6485.07,7.49948E-5
7160.08,6.90806E-5
8191.66,6.18728E-5
9898.25,5.54154E-5
10239.6,5.46721E-5
10623.5,5.56238E-5
10794.2,5.82082E-5
10836.9,5.94596E-5
10935.1,6.62836E-5
10974.0,7.20495E-5
11006.3,8.04233E-5
11033.5,9.16122E-5
11056.8,1.07844E-4
11072.3,1.25113E-4
11085.9,1.47871E-4
11097.5,1.76908E-4
11107.2,2.12724E-4
11115.7,2.56662E-4
11122.4,3.07706E-4
11128.3,3.68525E-4
11133.6,4.45915E-4
11138.7,5.4989E-4
11142.9,6.71192E-4
11147.1,8.36065E-4
11150.3,0.00102136
11153.2,0.0012444
11156.0,0.00154699
11158.2,0.00189318
11160.2,0.00230213
11161.8,0.0027939
11163.1,0.00332756
11164.2,0.00394599
11165.0,0.00462643
11165.6,0.00549827
11166.2,0.00658744
11166.7,0.00786843
11167.2,0.00964891
11167.7,0.0121401
11168.1,0.0154966
11168.5,0.0194059
11169.0,0.0251499
11169.4,0.0328699
11169.9,0.0431558
11170.3,0.0567096
11170.8,0.074742
11171.2,0.0980529
11171.7,0.127778
11172.2,0.171179
11172.8,0.232313
11173.3,0.305076
11174.0,0.421645
11174.8,0.590097
11175.7,0.842561
11178.6,1.78025
11179.8,2.03614
11180.9,2.14201
11181.0,2.14343
11182.0,2.068
11183.1,1.85775
11184.7,1.35201
11186.4,0.813797
11187.3,0.574392
11188.1,0.409242
11188.8,0.295426
11189.3,0.218887
11189.9,0.165228
11190.4,0.123189
11190.9,0.0922068
11191.4,0.0688467
11191.8,0.052466
11192.2,0.0399304
11192.7,0.0304508
11193.1,0.0239147
11193.5,0.0188371
11194.0,0.0147477
11194.4,0.0117411
11194.8,0.00953564
11195.3,0.00791334
11195.8,0.00651322
11196.4,0.00547257
11197.1,0.00455975
11198.0,0.00384986
11199.2,0.00318051
11200.5,0.00268248
11202.2,0.00221205
11204.3,0.00180632
11206.6,0.00147904
11209.4,0.00119467
11212.7,9.59774E-4
11216.0,7.90828E-4
11219.9,6.44052E-4
11224.1,5.33031E-4
11228.8,4.4148E-4
11234.4,3.63052E-4
11240.6,3.00935E-4
11248.4,2.4532E-4
11257.1,2.03391E-4
11266.4,1.71602E-4
11277.7,1.45566E-4
11292.0,1.22748E-4
11307.7,1.05909E-4
11327.2,9.25595E-5
11351.2,8.1573E-5
11380.4,7.32633E-5
11413.9,6.71618E-5
11475.4,6.12346E-5
11552.0,5.71059E-5
11664.2,5.42719E-5
11888.7,5.18471E-5
12337.5,5.00019E-5
14270.7,4.74311E-5
15823.8,4.63883E-5
16859.3,4.73135E-5
17118.1,4.85642E-5
17406.8,5.2673E-5
17526.2,5.72184E-5
17615.8,6.38362E-5
17684.9,7.37379E-5
17724.7,8.36256E-5
17759.1,9.69844E-5
17784.3,1.11739E-4
17809.5,1.33922E-4
17829.0,1.59462E-4
17846.2,1.92288E-4
17859.8,2.30059E-4
17872.9,2.81434E-4
17883.6,3.41745E-4
17893.7,4.21531E-4
17901.9,5.12653E-4
17909.2,6.26195E-4
17916.2,7.79741E-4
17922.2,9.65033E-4
17927.4,0.00119084
17932.2,0.0014793
17936.4,0.00183424
17940.1,0.00227959
17943.3,0.00280163
17946.0,0.00343841
17948.6,0.0042869
17950.7,0.00525911
17952.2,0.00624474
17953.4,0.00735905
17954.4,0.00876391
17955.3,0.0105188
17956.1,0.0127342
17956.8,0.0154019
17957.5,0.0191022
17958.1,0.0242612
17958.8,0.0307547
17959.3,0.0386123
17959.9,0.0488744
17960.4,0.062175
17961.0,0.0792569
17961.6,0.103427
17962.3,0.137666
17963.0,0.181831
17963.7,0.244734
17964.5,0.331103
17965.4,0.455935
17966.5,0.641634
17968.0,0.957928
17970.8,1.60597
17972.4,1.88043
17973.8,1.98041
17974.0,1.98204
17975.3,1.91066
17976.7,1.71208
17978.8,1.24974
17980.9,0.760507
17982.1,0.527681
17983.0,0.391096
17983.9,0.284351
17984.7,0.209806
17985.3,0.160931
17986.0,0.122365
17986.6,0.0924825
17987.3,0.0696935
17987.9,0.0547224
17988.4,0.0427857
17989.0,0.0339501
17989.6,0.0272071
17990.1,0.0220854
17990.8,0.0175457
17991.5,0.0142849
17992.2,0.0117059
17993.1,0.00957423
17994.1,0.00790849
17995.2,0.00676232
17996.7,0.00562149
17998.6,0.00463418
18000.8,0.00379411
18003.2,0.0031422
18006.3,0.0025237
18010.0,0.00201542
18014.0,0.0016201
18018.2,0.0013253
18023.2,0.00107157
18028.4,8.80489E-4
18034.4,7.19111E-4
18040.9,5.93535E-4
18048.7,4.83589E-4
18057.3,3.96149E-4
18068.2,3.19428E-4
18079.0,2.66341E-4
18092.4,2.18898E-4
18107.9,1.80572E-4
18126.1,1.49999E-4
18148.6,1.24604E-4
18172.8,1.07011E-4
18193.6,9.55999E-5
18228.2,8.28185E-5
18269.7,7.2853E-5
18325.1,6.51066E-5
18380.5,5.99704E-5
18487.4,5.4362E-5
18571.0,5.19283E-5
18831.3,4.84912E-5
19265.0,4.65303E-5
21000.0,4.54983E-5
25252.4,4.70372E-5
29157.8,5.01559E-5
34039.5,5.65296E-5
37944.9,6.3847E-5
40873.9,7.08197E-5
45755.6,8.82384E-5
49661.0,1.09109E-4
52590.0,1.32077E-4
55277.6,1.62343E-4
57102.4,1.92979E-4
57965.2,2.17626E-4
58380.4,2.41874E-4
58583.3,2.65573E-4
58704.3,2.90221E-4
58825.2,3.33542E-4
58899.1,3.79527E-4
58949.5,4.27918E-4
58999.9,5.01127E-4
59041.9,5.96256E-4
59074.7,7.08316E-4
59101.1,8.39616E-4
59123.8,0.0010005
59145.2,0.00121839
59162.9,0.00147526
59178.4,0.00179459
59193.1,0.00222458
59205.9,0.0027617
59216.2,0.00337024
59226.1,0.00419038
59234.5,0.00517579
59241.8,0.00638149
59248.5,0.0079273
59254.4,0.00983143
59259.3,0.012029
59264.0,0.015013
59268.0,0.0186847
59271.0,0.0225638
59273.6,0.0269925
59276.2,0.0333909
59278.3,0.0406387
59280.4,0.0507144
59282.1,0.0622989
59283.8,0.0769559
59285.5,0.0962269
59287.3,0.124204
59289.1,0.159029
59291.1,0.209651
59293.4,0.284644
59296.4,0.409161
59303.2,0.719665
59306.0,0.809059
59308.9,0.844537
59309.0,0.844555
59311.6,0.818714
59314.7,0.723399
59320.8,0.446196
59324.1,0.303049
59326.4,0.224263
59328.5,0.168984
59330.5,0.127423
59332.2,0.100956
59334.0,0.0788251
59335.9,0.0621119
59337.8,0.0498766
59339.9,0.0400455
59341.9,0.0332053
59344.4,0.027038
59347.5,0.021861
59350.8,0.0178314
59354.4,0.0147532
59358.7,0.0120702
59363.6,0.00984761
59369.5,0.00794138
59376.0,0.0064349
59383.3,0.00521653
59392.1,0.00418041
59402.2,0.00335148
59413.1,0.00271995
59424.9,0.00223463
59439.2,0.00181511
59454.3,0.00150049
59471.9,0.00123985
59493.8,0.00101593
59517.3,8.49926E-4
59544.6,7.17107E-4
59576.9,6.09316E-4
59614.7,5.24512E-4
59665.1,4.51508E-4
59718.9,4.01848E-4
59792.8,3.59704E-4
59884.7,3.31279E-4
59987.8,3.11674E-4
60142.6,3.00012E-4
60245.8,2.95495E-4
60477.9,3.0562E-4
60581.1,3.22339E-4
60658.5,3.5123E-4
60707.9,3.90015E-4
60746.2,4.42979E-4
60772.1,5.07288E-4
60793.8,5.94466E-4
60810.5,7.01159E-4
60823.9,8.32653E-4
60835.3,0.00100346
60844.9,0.00121925
60852.6,0.00147316
60859.4,0.00179431
60865.0,0.00217838
60869.9,0.00264743
60873.9,0.00320698
60877.1,0.00385817
60879.7,0.00463486
60881.4,0.00541557
60883.1,0.00648642
60884.6,0.00780775
60885.8,0.00933727
60887.0,0.0114234
60888.2,0.0142802
60889.3,0.0177419
60890.5,0.0229064
60891.7,0.0298888
60892.9,0.0392269
60894.1,0.0515556
60895.4,0.0688102
60896.7,0.090832
60898.1,0.122274
60899.6,0.166673
60901.3,0.228151
60903.2,0.31568
60906.1,0.472338
60911.2,0.783504
60913.9,0.902073
60916.4,0.953863
60917.0,0.955718
60919.6,0.918853
60922.3,0.806803
60927.1,0.525971
60930.2,0.343699
60932.4,0.240595
60934.1,0.176486
60935.5,0.13257
60937.0,0.0979572
60938.3,0.0743457
60939.5,0.0560096
60940.6,0.0437966
60941.7,0.0342401
60942.8,0.0268478
60943.9,0.0211844
60945.0,0.0168806
60946.1,0.0133971
60947.4,0.0107789
60948.7,0.00866705
60950.2,0.00703584
60951.7,0.00590372
60953.6,0.00496114
60955.7,0.00418835
60958.3,0.0035639
60961.9,0.00294556
60966.3,0.00243114
60971.8,0.00197562
60977.6,0.00164423
60983.9,0.00138665
60992.6,0.00113658
61002.8,9.40199E-4
61012.9,8.06531E-4
61027.5,6.77696E-4
61044.4,5.79048E-4
61061.8,5.12344E-4
61085.0,4.56048E-4
61114.1,4.10202E-4
61162.8,3.67653E-4
61239.2,3.37136E-4
61310.1,3.24009E-4
61522.8,3.12797E-4
61593.8,3.11936E-4
62586.6,3.39033E-4
64146.7,4.14621E-4
65565.0,5.12606E-4
66841.5,6.3561E-4
67976.1,7.87568E-4
68968.9,9.70686E-4
69961.7,0.00122238
70812.7,0.00152166
71663.7,0.00193528
72372.8,0.00240847
73082.0,0.00303453
73876.2,0.00398233
74897.4,0.00559145
75861.9,0.00710182
76446.2,0.00755776
76599.4,0.0075796
77166.7,0.00728807
77904.2,0.00624943
79152.3,0.00416244
79889.8,0.00319848
80599.0,0.00250334
81308.1,0.00198095
82017.3,0.00159587
82726.4,0.001303
83577.4,0.00104258
84428.4,8.49993E-4
85421.2,6.8427E-4
86555.8,5.46599E-4
87690.5,4.46897E-4
88825.1,3.76961E-4
89286.1,3.62581E-4
89569.7,3.76497E-4
89676.1,4.00846E-4
89755.9,4.42581E-4
89805.9,4.94147E-4
89841.1,5.54667E-4
89876.3,6.54898E-4
89898.1,7.54329E-4
89916.4,8.77955E-4
89934.6,0.00106314
89949.2,0.00128479
89960.1,0.00152472
89970.6,0.00185395
89978.8,0.0022188
89986.6,0.00270068
89992.9,0.00325508
89998.4,0.00391072
90003.0,0.00466074
90007.5,0.00572759
90010.7,0.00681419
90013.5,0.00815792
90015.8,0.00988166
90017.9,0.012037
90019.6,0.0145749
90021.3,0.018104
90022.9,0.0224674
90024.4,0.0283657
90026.0,0.0366401
90027.6,0.0477911
90029.2,0.0626303
90030.8,0.0820766
90032.4,0.107119
90034.2,0.145154
90036.3,0.198742
90038.5,0.272374
90041.2,0.385082
90046.5,0.647502
90051.0,0.859874
90054.3,0.959772
90056.9,0.985112
90059.8,0.952501
90062.8,0.858875
90067.1,0.656924
90072.5,0.385935
90075.1,0.278638
90077.5,0.199942
90079.4,0.148525
90081.2,0.110515
90082.9,0.083929
90084.5,0.063433
90086.0,0.0497475
90087.5,0.0384318
90089.1,0.029934
90090.6,0.0236112
90092.1,0.0189339
90093.9,0.0150649
90095.7,0.0123152
90097.7,0.0100638
90099.8,0.00848804
90102.3,0.00714007
90105.2,0.00602893
90108.9,0.00504895
90113.3,0.0042106
90118.4,0.00350429
90124.6,0.00289305
90132.4,0.00234904
90141.6,0.00190315
90150.9,0.00159038
90162.4,0.00131644
90173.8,0.00112203
90187.6,9.54134E-4
90206.1,7.99322E-4
90224.6,6.9351E-4
90249.2,5.98711E-4
90279.8,5.20713E-4
90328.9,4.46077E-4
90373.2,4.04798E-4
90417.6,3.7761E-4
90506.2,3.43996E-4
90594.9,3.24017E-4
90860.9,2.93798E-4
91304.3,2.69188E-4
91659.0,2.59374E-4
91860.4,2.6671E-4
91912.2,2.79694E-4
91946.8,2.97792E-4
91969.8,3.23464E-4
91986.3,3.55617E-4
91998.9,3.97281E-4
92009.0,4.51956E-4
92016.5,5.17082E-4
92022.5,5.99386E-4
92026.4,6.8723E-4
92029.3,7.98286E-4
92031.3,9.17394E-4
92033.0,0.00107443
92034.4,0.0012708
92035.9,0.00155242
92037.2,0.00192796
92038.5,0.00239051
92039.7,0.00301417
92040.9,0.00384965
92042.1,0.00495989
92043.3,0.00642148
92044.6,0.00832571
92045.8,0.0107789
92047.0,0.0140122
92048.4,0.0183834
92049.9,0.0248047
92051.4,0.0330227
92053.1,0.0444649
92055.1,0.0616285
92057.2,0.0848147
92060.1,0.123752
92068.0,0.24784
92071.2,0.283675
92074.3,0.299706
92074.9,0.300093
92078.1,0.288058
92081.5,0.251972
92087.6,0.155512
92091.1,0.103279
92093.5,0.0742756
92095.6,0.0531982
92097.5,0.0389372
92099.0,0.029508
92100.6,0.0217161
92102.0,0.0165128
92103.3,0.0124502
92104.7,0.00932912
92106.0,0.00708207
92107.2,0.00546521
92108.5,0.00423222
92109.7,0.00330108
92110.9,0.00260394
92112.1,0.00208566
92113.3,0.00170237
92114.5,0.0014197
92115.9,0.00118908
92117.7,9.85276E-4
92119.7,8.36051E-4
92122.3,7.20656E-4
92125.4,6.35408E-4
92130.4,5.48809E-4
92137.1,4.7844E-4
92145.5,4.20596E-4
92153.9,3.82076E-4
92170.8,3.35163E-4
92187.6,3.08094E-4
92221.3,2.80274E-4
92266.2,2.62546E-4
92374.0,2.47931E-4
92526.0,2.42715E-4
92781.4,2.53355E-4
92897.5,2.74551E-4
92967.1,3.02742E-4
93025.2,3.4728E-4
93060.0,3.94347E-4
93090.5,4.60148E-4
93112.3,5.30557E-4
93132.3,6.27626E-4
93148.1,7.39714E-4
93161.3,8.71824E-4
93173.4,0.00104373
93184.4,0.00126772
93193.9,0.00154226
93201.8,0.00186476
93208.9,0.0022716
93214.8,0.00274496
93219.9,0.0033154
93223.9,0.0039234
93227.0,0.00459563
93229.8,0.00542744
93232.1,0.00646252
93234.2,0.00778645
93236.0,0.00942141
93237.5,0.0113127
93239.0,0.01409
93240.5,0.0176829
93242.0,0.0225847
93243.5,0.0292367
93245.0,0.0381852
93246.3,0.0491897
93247.7,0.0633895
93249.3,0.0844209
93250.9,0.111641
93252.5,0.148599
93254.3,0.198112
93256.4,0.270815
93258.9,0.383962
93262.5,0.577597
93269.1,0.965434
93272.5,1.10332
93275.7,1.15344
93275.9,1.1536
93279.1,1.10884
93282.4,0.981096
93287.7,0.672495
93291.9,0.433943
93294.6,0.305027
93296.6,0.227258
93298.5,0.16789
93300.3,0.12371
93301.9,0.0938761
93303.5,0.0706541
93304.9,0.0548735
93306.4,0.0418137
93307.8,0.0319549
93309.3,0.0246002
93310.8,0.0191653
93312.3,0.0151761
93313.8,0.0122561
93315.2,0.0101157
93317.0,0.00827347
93319.1,0.00679416
93321.4,0.00565253
93324.0,0.00480421
93327.2,0.00407158
93331.1,0.00342149
93335.8,0.00285916
93341.7,0.00235267
93348.6,0.00193118
93357.1,0.00156706
93366.8,0.00127873
93376.3,0.00107724
93389.2,8.83644E-4
93404.7,7.27053E-4
93422.5,6.04701E-4
93440.1,5.21031E-4
93465.2,4.41072E-4
93501.4,3.68993E-4
93543.7,3.18299E-4
93591.9,2.83338E-4
93656.2,2.55367E-4
93768.8,2.28877E-4
93913.6,2.11621E-4
94170.9,1.96064E-4
94663.8,1.81478E-4
95488.3,1.68596E-4
95606.0,1.68063E-4
95871.0,1.71721E-4
96018.3,1.80474E-4
96106.6,1.90535E-4
96194.9,2.11816E-4
96261.2,2.43643E-4
96304.3,2.81275E-4
96336.0,3.25238E-4
96362.3,3.82677E-4
96382.9,4.50072E-4
96401.3,5.38625E-4
96416.6,6.46636E-4
96429.3,7.73701E-4
96440.1,9.26237E-4
96450.6,0.00113508
96459.4,0.00138716
96467.5,0.0017184
96473.8,0.00208262
96479.3,0.00251456
96484.5,0.00310691
96488.1,0.00368835
96491.0,0.00433242
96493.6,0.00514949
96496.1,0.00629127
96498.3,0.00775458
96500.2,0.00954398
96502.0,0.0119214
96503.6,0.0147497
96505.2,0.0185134
96506.8,0.0234922
96508.4,0.0300198
96510.1,0.0395839
96511.9,0.052488
96513.7,0.0691629
96515.6,0.0913799
96517.8,0.123326
96520.5,0.17457
96524.3,0.261412
96530.9,0.420868
96534.4,0.480313
96537.7,0.501364
96537.9,0.501408
96541.1,0.483629
96544.4,0.431236
96549.7,0.304973
96554.4,0.19221
96557.1,0.139162
96559.6,0.100001
96561.5,0.0750367
96563.5,0.055541
96565.3,0.0419287
96566.9,0.0327111
96568.5,0.0255634
96570.1,0.0200896
96571.6,0.0159403
96573.4,0.0125882
96575.0,0.0102456
96576.9,0.00825603
96578.8,0.0068321
96580.7,0.00579625
96583.4,0.00475347
96586.3,0.00398915
96589.9,0.00332085
96594.6,0.00271652
96600.0,0.00222739
96606.3,0.00182203
96613.5,0.00149239
96622.3,0.00120836
96632.3,9.86319E-4
96643.6,8.08802E-4
96655.7,6.75587E-4
96669.8,5.65557E-4
96686.2,4.7566E-4
96704.4,4.05825E-4
96727.0,3.46084E-4
96754.1,2.97724E-4
96785.1,2.60871E-4
96829.1,2.27805E-4
96873.0,2.05827E-4
96939.0,1.85255E-4
97027.0,1.69381E-4
97114.9,1.59698E-4
97290.9,1.48522E-4
97466.8,1.42013E-4
97894.8,1.32717E-4
99178.6,1.17768E-4
100355.0,1.11562E-4
101003.0,1.18265E-4
101199.0,1.27235E-4
101340.0,1.40163E-4
101445.0,1.5779E-4
101530.0,1.81871E-4
101593.0,2.1136E-4
101645.0,2.49764E-4
101688.0,2.96475E-4
101724.0,3.57502E-4
101756.0,4.35018E-4
101783.0,5.31096E-4
101804.0,6.4182E-4
101824.0,7.81842E-4
101842.0,9.72815E-4
101858.0,0.00120848
101872.0,0.00150845
101883.0,0.00185179
101894.0,0.00229511
101903.0,0.0028226
101911.0,0.00352031
101919.0,0.00438601
101925.0,0.00539987
101930.0,0.00660606
101935.0,0.00811687
101939.0,0.00999919
101942.0,0.0121747
101946.0,0.0151955
101949.0,0.0189805
101952.0,0.0242037
101955.0,0.0311651
101958.0,0.0405203
101962.0,0.0539443
101966.0,0.0736282
101971.0,0.10852
101978.0,0.158053
101982.0,0.173748
101986.0,0.181126
101990.0,0.174434
101994.0,0.153583
102006.0,0.0761996
102010.0,0.0555685
102013.0,0.0416052
102016.0,0.0317526
102020.0,0.0245539
102022.0,0.019616
102025.0,0.0159448
102029.0,0.0127083
102032.0,0.01039
102037.0,0.00839682
102041.0,0.0069077
102046.0,0.00561821
102053.0,0.00449246
102060.0,0.00359623
102067.0,0.00295388
102076.0,0.00238988
102087.0,0.00192272
102098.0,0.00155746
102111.0,0.00127632
102126.0,0.00102605
102144.0,8.26612E-4
102164.0,6.67427E-4
102185.0,5.48859E-4
102209.0,4.57827E-4
102238.0,3.78063E-4
102271.0,3.13817E-4
102313.0,2.60852E-4
102355.0,2.24041E-4
102407.0,1.92583E-4
102474.0,1.66386E-4
102569.0,1.43189E-4
102681.0,1.26779E-4
102815.0,1.15008E-4
103025.0,1.04331E-4
103374.0,9.53233E-5
103667.0,9.10617E-5
104399.0,8.58062E-5
104545.0,8.53423E-5
104985.0,8.7612E-5
105168.0,9.31622E-5
105277.0,1.01157E-4
105360.0,1.13425E-4
105414.0,1.28286E-4
105453.0,1.46115E-4
105486.0,1.69953E-4
105514.0,2.01886E-4
105536.0,2.38538E-4
105554.0,2.8524E-4
105569.0,3.4061E-4
105582.0,4.0795E-4
105595.0,5.00253E-4
105605.0,6.09996E-4
105614.0,7.45735E-4
105621.0,9.00103E-4
105628.0,0.00111871
105633.0,0.00134982
105638.0,0.00162237
105642.0,0.00194166
105644.0,0.00228665
105647.0,0.00276067
105648.0,0.00325317
105650.0,0.00394726
105652.0,0.00494143
105653.0,0.00620842
105655.0,0.00774762
105656.0,0.00992966
105657.0,0.0128765
105659.0,0.016829
105660.0,0.0220733
105662.0,0.0283925
105663.0,0.0371343
105665.0,0.0483032
105666.0,0.0646318
105668.0,0.0873903
105670.0,0.118124
105672.0,0.164277
105675.0,0.228469
105678.0,0.331204
105685.0,0.595881
105689.0,0.687127
105692.0,0.730706
105693.0,0.732676
105696.0,0.703499
105700.0,0.622894
105705.0,0.430019
105710.0,0.280651
105713.0,0.196403
105715.0,0.14517
105717.0,0.107653
105719.0,0.0794791
105720.0,0.0598211
105722.0,0.0442704
105723.0,0.0341192
105725.0,0.0261818
105726.0,0.0200519
105728.0,0.015375
105729.0,0.0118453
105730.0,0.00933164
105732.0,0.0073397
105733.0,0.00600947
105735.0,0.00478149
105736.0,0.00390423
105738.0,0.00327272
105740.0,0.00269839
105742.0,0.00225378
105745.0,0.00189691
105749.0,0.00157864
105753.0,0.00130703
105759.0,0.00106647
105766.0,8.8558E-4
105773.0,7.29038E-4
105783.0,5.95209E-4
105794.0,4.82844E-4
105805.0,4.01572E-4
105818.0,3.36966E-4
105833.0,2.82292E-4
105852.0,2.35615E-4
105874.0,1.97493E-4
105901.0,1.67933E-4
105932.0,1.45442E-4
105976.0,1.25029E-4
106025.0,1.11177E-4
106096.0,9.92919E-5
106178.0,9.17408E-5
106260.0,8.67196E-5
106477.0,8.00479E-5
106912.0,7.48773E-5
108000.0,7.03978E-5
109523.0,6.8515E-5
110938.0,7.09964E-5
111917.0,7.73748E-5
112570.0,8.62936E-5
113092.0,9.88451E-5
113527.0,1.16341E-4
113832.0,1.35508E-4
114093.0,1.59651E-4
114310.0,1.88508E-4
114484.0,2.20789E-4
114658.0,2.65549E-4
114811.0,3.20817E-4
114941.0,3.86602E-4
115072.0,4.78593E-4
115181.0,5.8681E-4
115279.0,7.22097E-4
115366.0,8.88345E-4
115442.0,0.00108729
115518.0,0.00136131
115583.0,0.00168513
115648.0,0.00213125
115703.0,0.00263786
115757.0,0.00331657
115812.0,0.00422353
115871.0,0.00553346
115984.0,0.00843323
116016.0,0.00900044
116051.0,0.00922458
116095.0,0.00887463
116153.0,0.00757924
116250.0,0.00505768
116311.0,0.00385236
116365.0,0.00303899
116420.0,0.00243191
116481.0,0.00192913
116549.0,0.00152622
116617.0,0.00123448
116698.0,9.81827E-4
116780.0,7.99839E-4
116875.0,6.46015E-4
116984.0,5.20566E-4
117101.0,4.24344E-4
117215.0,3.55788E-4
117346.0,2.97524E-4
117509.0,2.44852E-4
117705.0,2.00562E-4
117922.0,1.66391E-4
118183.0,1.37971E-4
118488.0,1.154E-4
118836.0,9.79738E-5
119239.0,8.44697E-5
119750.0,7.28424E-5
120403.0,6.34123E-5
121273.0,5.566E-5
122579.0,4.89883E-5
124319.0,4.4201E-5
127148.0,4.04975E-5
130847.0,3.89372E-5
131717.0,3.89085E-5
136504.0,4.06274E-5
140421.0,4.45054E-5
143902.0,5.0743E-5
146078.0,5.69329E-5
147383.0,6.26622E-5
148036.0,6.8241E-5
148396.0,7.32385E-5
148609.0,7.80552E-5
148823.0,8.4883E-5
149001.0,9.51776E-5
149143.0,1.08184E-4
149250.0,1.24229E-4
149339.0,1.45672E-4
149407.0,1.69292E-4
149463.0,1.99182E-4
149512.0,2.36179E-4
149554.0,2.82563E-4
149590.0,3.3911E-4
149622.0,4.10569E-4
149650.0,4.98935E-4
149672.0,5.92415E-4
149695.0,7.25938E-4
149714.0,8.86099E-4
149731.0,0.00108005
